f (THz),eps.real,eps.imag
0.0,22.210500000000003,0.0
0.001,22.21050044206565,0.0002808874426295426
0.002,22.210501768262773,0.0005617749769581159
0.003,22.210503978591923,0.0008426626946848469
0.004,22.21050707305399,0.001123550687509056
0.005,22.210511051650244,0.0014044390471303527
0.006,22.210515914382302,0.0016853278652487322
0.007,22.210521661252148,0.001966217233564672
0.008,22.210528292262136,0.002247107243779229
0.009000000000000001,22.210535807414967,0.0025279979875941364
0.01,22.21054420671371,0.0028088895567118955
0.011,22.210553490161786,0.0030897820428358795
0.012,22.210563657762986,0.0033706755376704256
0.013000000000000001,22.210574709521467,0.003651570132920932
0.014,22.210586645441722,0.003932465920293953
0.015,22.21059946552863,0.004213362991497301
0.016,22.21061316978743,0.004494261438240134
0.017,22.210627758223705,0.004775161352233061
0.018000000000000002,22.21064323084341,0.005056062825188234
0.019,22.21065958765286,0.005336965948819446
0.02,22.210676828658727,0.005617870814842221
0.021,22.210694953868057,0.005898777514973928
0.022,22.210713963288228,0.006179686140933851
0.023,22.21073385692701,0.006460596784443313
0.024,22.210754634792522,0.006741509537225753
0.025,22.210776296893243,0.007022424491006832
0.026000000000000002,22.210798843238003,0.007303341737514523
0.027,22.210822273836012,0.007584261368479215
0.028,22.21084658869683,0.007865183475633808
0.029,22.210871787830374,0.0081461081507138
0.03,22.210897871246935,0.008427035485457398
0.031,22.21092483895716,0.008707965571605601
0.032,22.210952690972043,0.00898889850090232
0.033,22.210981427302954,0.00926983436509443
0.034,22.21101104796164,0.00955077325593192
0.035,22.211041552960157,0.009831715265167946
0.036000000000000004,22.21107294231098,0.010112660484558956
0.037,22.2111052160269,0.010393609005864769
0.038,22.21113837412111,0.01067456092084869
0.039,22.211172416607127,0.01095551632127758
0.04,22.21120734349885,0.011236475298921982
0.041,22.211243154810536,0.01151743794555619
0.042,22.21127985055679,0.011798404352958376
0.043000000000000003,22.2113174307526,0.012079374612910657
0.044,22.211355895413305,0.012360348817199204
0.045,22.2113952445546,0.012641327057614345
0.046,22.21143547819254,0.012922309425950658
0.047,22.21147659634356,0.013203296014007057
0.048,22.21151859902444,0.013484286913586902
0.049,22.211561486252315,0.013765282216498096
0.05,22.211605258044692,0.014046282014553164
0.051000000000000004,22.21164991441945,0.014327286399569376
0.052000000000000005,22.2116954553948,0.014608295463368823
0.053,22.21174188098935,0.014889309297778519
0.054,22.211789191222042,0.015170327994630504
0.055,22.211837386112183,0.015451351645761936
0.056,22.211886465679452,0.01573238034301519
0.057,22.211936429943883,0.016013414178237945
0.058,22.211987278925868,0.016294453243283304
0.059000000000000004,22.21203901264618,0.016575497630009855
0.06,22.212091631125922,0.016856547430281796
0.061,22.21214513438658,0.017137602735969037
0.062,22.21219952245,0.01741866363894728
0.063,22.212254795338385,0.017699730231098103
0.064,22.212310953074294,0.017980802604309086
0.065,22.212367995680665,0.018261880850473908
0.066,22.212425923180778,0.01854296506149241
0.067,22.212484735598284,0.01882405532927072
0.068,22.21254443295721,0.019105151745721357
0.069,22.212605015281905,0.01938625440276328
0.07,22.212666482597133,0.01966736339232208
0.07100000000000001,22.21272883492797,0.019948478806329956
0.07200000000000001,22.212792072299873,0.0202296007367259
0.073,22.212856194738684,0.02051072927545576
0.074,22.212921202270575,0.020791864514472368
0.075,22.212987094922084,0.02107300654573557
0.076,22.213053872720135,0.02135415546121239
0.077,22.213121535691982,0.02163531135287711
0.078,22.21319008386526,0.02191647431271133
0.079,22.213259517267964,0.022197644432704135
0.08,22.21332983592845,0.02247882180485213
0.081,22.213401039875436,0.022760006521159542
0.082,22.213473129138,0.02304119867363837
0.083,22.213546103745575,0.023322398354308417
0.084,22.213619963727975,0.023603605655197448
0.085,22.213694709115366,0.023884820668341217
0.08600000000000001,22.21377033993827,0.024166043485783637
0.08700000000000001,22.213846856227594,0.02444727419957683
0.088,22.213924258014575,0.024728512901781227
0.089,22.21400254533083,0.025009759684465692
0.09,22.214081718208337,0.025291014639707607
0.091,22.21416177667944,0.025572277859592936
0.092,22.21424272077685,0.02585354943621639
0.093,22.214324550533615,0.02613482946168146
0.094,22.214407265983173,0.026416118028100555
0.095,22.214490867159313,0.02669741522759508
0.096,22.214575354096187,0.026978721152295524
0.097,22.214660726828317,0.02726003589434161
0.098,22.214746985390573,0.027541359545882306
0.099,22.214834129818204,0.027822692199076012
0.1,22.21492216014681,0.028104033946090592
0.101,22.215011076412363,0.0283853848791035
0.10200000000000001,22.21510087865119,0.028666745090301888
0.10300000000000001,22.215191566899982,0.02894811467188267
0.10400000000000001,22.215283141195798,0.029229493716052657
0.105,22.215375601576056,0.02951088231502861
0.106,22.215468948078545,0.029792280561037388
0.107,22.2155631807414,0.030073688546316018
0.108,22.215658299603138,0.03035510636311179
0.109,22.21575430470263,0.03063653410368236
0.11,22.215851196079104,0.03091797186029585
0.111,22.215948973772168,0.03119941972523096
0.112,22.216047637821784,0.03148087779077702
0.113,22.216147188268266,0.031762346149234136
0.114,22.216247625152317,0.03204382489291328
0.115,22.216348948514977,0.03232531411413635
0.116,22.21645115839767,0.03260681390523632
0.117,22.216554254842176,0.0328883243585573
0.11800000000000001,22.216658237890634,0.03316984556645467
0.11900000000000001,22.216763107585553,0.033451377621295124
0.12,22.216868863969804,0.03373292061545681
0.121,22.21697550708662,0.03401447464132942
0.122,22.217083036979602,0.0342960397913143
0.123,22.217191453692706,0.034577616157824516
0.124,22.21730075727027,0.03485920383328495
0.125,22.21741094775698,0.035140802910132475
0.126,22.217522025197887,0.03542241348081594
0.127,22.217633989638404,0.03570403563779635
0.128,22.21774684112433,0.03598566947354692
0.129,22.217860579701803,0.03626731508055325
0.13,22.21797520541733,0.03654897255131327
0.131,22.218090718317796,0.03683064197833749
0.132,22.218207118450433,0.037112323454149054
0.133,22.218324405862848,0.03739401707128379
0.134,22.218442580603014,0.03767572292229038
0.135,22.218561642719273,0.037957441099730364
0.136,22.218681592260296,0.03823917169617835
0.137,22.218802429275176,0.03852091480422207
0.138,22.218924153813322,0.038802670516462405
0.139,22.21904676592453,0.03908443892551358
0.14,22.219170265658967,0.039366220124003266
0.14100000000000001,22.21929465306715,0.03964801420457257
0.14200000000000002,22.219419928199958,0.03992982125987626
0.14300000000000002,22.219546091108658,0.04021164138258278
0.14400000000000002,22.219673141844858,0.04049347466537437
0.145,22.21980108046054,0.04077532120094723
0.146,22.219929907008066,0.04105718108201146
0.147,22.220059621540138,0.041339054401291375
0.148,22.22019022410983,0.0416209412515254
0.149,22.220321714770595,0.041902841725466294
0.15,22.22045409357624,0.0421847559158812
0.151,22.220587360580947,0.042466683915551764
0.152,22.220721515839244,0.04274862581727421
0.153,22.22085655940605,0.043030581713859484
0.154,22.22099249133663,0.04331255169813329
0.155,22.221129311686624,0.04359453586293626
0.156,22.221267020512038,0.043876534301123954
0.157,22.221405617869237,0.0441585471055671
0.158,22.221545103814968,0.04444057436915156
0.159,22.22168547840632,0.0447226161847785
0.16,22.221826741700777,0.04500467264536446
0.161,22.221968893756156,0.045286743843841466
0.162,22.222111934630675,0.045568829873157156
0.163,22.22225586438288,0.045850930826274824
0.164,22.22240068307173,0.04613304679617356
0.165,22.22254639075651,0.04641517787584835
0.166,22.222692987496888,0.04669732415831008
0.167,22.222840473352903,0.04697948573658584
0.168,22.222988848384954,0.04726166270371883
0.169,22.223138112653796,0.04754385515276852
0.17,22.22328826622058,0.0478260631768108
0.171,22.2234393091468,0.04810828686893803
0.17200000000000001,22.223591241494326,0.04839052632225911
0.17300000000000001,22.223744063325388,0.04867278162989967
0.17400000000000002,22.2238977747026,0.048955052885002126
0.17500000000000002,22.224052375688906,0.04923734018072569
0.176,22.224207866347665,0.04951964361024661
0.177,22.22436424674259,0.04980196326675826
0.178,22.22452151693772,0.050084299243471075
0.179,22.22467967699753,0.05036665163361288
0.18,22.2248387269868,0.05064902053042881
0.181,22.224998666970713,0.05093140602718149
0.182,22.225159497014815,0.051213808217151116
0.183,22.22532121718501,0.0514962271936356
0.184,22.22548382754758,0.0517786630499506
0.185,22.22564732816918,0.05206111587942965
0.186,22.22581171911681,0.052343585775424264
0.187,22.225977000457853,0.052626072831304035
0.188,22.22614317226007,0.052908577140456756
0.189,22.226310234591576,0.05319109879628848
0.19,22.226478187520854,0.05347363789222362
0.191,22.226647031116762,0.05375619452170508
0.192,22.226816765448525,0.054038768778194385
0.193,22.22698739058574,0.054321360755171674
0.194,22.22715890659836,0.05460397054613591
0.195,22.227331313556725,0.054886598244604935
0.196,22.227504611531533,0.05516924394411555
0.197,22.227678800593853,0.055451907738223644
0.198,22.22785388081512,0.05573458972050431
0.199,22.228029852267138,0.05601728998455192
0.2,22.228206715022086,0.056300008623980206
0.201,22.228384469152527,0.05658274573242239
0.202,22.22856311473134,0.0568655014035313
0.203,22.22874265183184,0.05714827573097946
0.20400000000000001,22.228923080527675,0.05743106880845916
0.20500000000000002,22.229104400892858,0.057713880729682546
0.20600000000000002,22.22928661300179,0.05799671158838183
0.20700000000000002,22.229469716929234,0.058279561478309254
0.20800000000000002,22.22965371275033,0.0585624304932373
0.209,22.229838600540575,0.05884531872695868
0.21,22.230024380375845,0.05912822627328657
0.211,22.23021105233238,0.059411153226054586
0.212,22.230398616486795,0.059694099679116985
0.213,22.230587072916084,0.059977065726348686
0.214,22.23077642169759,0.06026005146164542
0.215,22.230966662909044,0.060543056978923836
0.216,22.231157796628555,0.06082608237212158
0.217,22.231349822934565,0.061109127735197374
0.218,22.231542741905937,0.061392193162131174
0.219,22.23173655362186,0.06167527874692423
0.22,22.231931258161936,0.06195838458359923
0.221,22.232126855606097,0.06224151076620031
0.222,22.23232334603468,0.06252465738879333
0.223,22.232520729528368,0.06280782454546567
0.224,22.23271900616823,0.0630910123303268
0.225,22.232918176035717,0.06337422083750785
0.226,22.233118239212615,0.06365745016116214
0.227,22.23331919578112,0.06394070039546501
0.228,22.233521045823792,0.06422397163461409
0.229,22.233723789423532,0.06450726397282928
0.23,22.233927426663655,0.06479057750435298
0.231,22.234131957627824,0.06507391232345006
0.232,22.234337382400078,0.06535726852440805
0.233,22.234543701064837,0.06564064620153721
0.234,22.234750913706893,0.06592404544917063
0.23500000000000001,22.234959020411377,0.06620746636166439
0.23600000000000002,22.23516802126385,0.06649090903339752
0.23700000000000002,22.235377916350206,0.06677437355877226
0.23800000000000002,22.235588705756715,0.06705786003221409
0.23900000000000002,22.23580038957003,0.06734136854817184
0.24,22.23601296787718,0.0676248992011178
0.241,22.236226440765567,0.06790845208554781
0.242,22.236440808322932,0.06819202729598133
0.243,22.236656070637448,0.06847562492696165
0.244,22.23687222779762,0.06875924507305586
0.245,22.23708927989234,0.06904288782885507
0.246,22.23730722701087,0.06932655328897444
0.247,22.237526069242843,0.06961024154805329
0.248,22.23774580667828,0.06989395270075525
0.249,22.23796643940756,0.07017768684176832
0.25,22.238187967521444,0.07046144406580496
0.251,22.238410391111067,0.0707452244676022
0.252,22.238633710267944,0.07102902814192184
0.253,22.23885792508394,0.0713128551835504
0.254,22.239083035651337,0.07159670568729934
0.255,22.239309042062743,0.07188057974800506
0.256,22.23953594441118,0.07216447746052918
0.257,22.239763742790032,0.07244839891975836
0.258,22.23999243729304,0.07273234422060476
0.259,22.24022202801435,0.07301631345800581
0.26,22.240452515048467,0.0733003067269245
0.261,22.24068389849027,0.07358432412234948
0.262,22.24091617843503,0.07386836573929509
0.263,22.241149354978358,0.07415243167280151
0.264,22.24138342821628,0.07443652201793491
0.265,22.24161839824518,0.07472063686978733
0.266,22.241854265161827,0.07500477632347718
0.267,22.24209102906333,0.07528894047414894
0.268,22.24232869004724,0.07557312941697353
0.269,22.24256724821142,0.07585734324714831
0.27,22.242806703654153,0.07614158205989716
0.271,22.243047056474076,0.07642584595047071
0.272,22.2432883067702,0.07671013501414628
0.273,22.243530454641935,0.07699444934622808
0.274,22.243773500189057,0.07727878904204737
0.275,22.24401744351169,0.07756315419696237
0.276,22.2442622847104,0.07784754490635859
0.277,22.244508023886066,0.07813196126564878
0.278,22.24475466113997,0.0784164033702731
0.279,22.24500219657379,0.07870087131569928
0.28,22.245250630289547,0.0789853651974225
0.281,22.245499962389662,0.0792698851109658
0.28200000000000003,22.245750192976935,0.07955443115188
0.28300000000000003,22.246001322154527,0.0798390034157438
0.28400000000000003,22.246253350025984,0.080123601998164
0.28500000000000003,22.246506276695253,0.0804082269947755
0.28600000000000003,22.24676010226662,0.08069287850124138
0.28700000000000003,22.247014826844786,0.08097755661325311
0.28800000000000003,22.247270450534806,0.08126226142653069
0.289,22.247526973442113,0.08154699303682257
0.29,22.247784395672543,0.0818317515399059
0.291,22.248042717332293,0.08211653703158664
0.292,22.24830193852794,0.0824013496076995
0.293,22.248562059366428,0.08268618936410832
0.294,22.248823079955127,0.0829710563967059
0.295,22.249085000401728,0.08325595080141432
0.296,22.24934782081434,0.0835408726741849
0.297,22.249611541301427,0.08382582211099843
0.298,22.24987616197187,0.08411079920786514
0.299,22.25014168293488,0.0843958040608249
0.3,22.250408104300092,0.08468083676594733
0.301,22.25067542617749,0.08496589741933183
0.302,22.250943648677467,0.08525098611710773
0.303,22.251212771910765,0.08553610295543454
0.304,22.25148279598854,0.08582124803050169
0.305,22.251753721022304,0.08610642143852906
0.306,22.25202554712395,0.08639162327576677
0.307,22.252298274405774,0.08667685363849553
0.308,22.25257190298044,0.08696211262302649
0.309,22.252846432960983,0.08724740032570152
0.31,22.25312186446083,0.08753271684289342
0.311,22.253398197593803,0.08781806227100565
0.312,22.253675432474076,0.08810343670647289
0.313,22.253953569216232,0.08838884024576078
0.314,22.254232607935215,0.08867427298536627
0.315,22.25451254874637,0.08895973502181757
0.316,22.254793391765418,0.0892452264516744
0.317,22.255075137108452,0.08953074737152794
0.318,22.255357784891963,0.08981629787800106
0.319,22.255641335232813,0.09010187806774844
0.32,22.255925788248256,0.09038748803745648
0.321,22.25621114405593,0.0906731278838437
0.322,22.256497402773835,0.09095879770366064
0.323,22.25678456452038,0.09124449759368998
0.324,22.25707262941435,0.09153022765074678
0.325,22.257361597574914,0.0918159879716785
0.326,22.25765146912162,0.092101778653365
0.327,22.257942244174398,0.09238759979271893
0.328,22.25823392285357,0.0926734514866855
0.329,22.258526505279846,0.09295933383224292
0.33,22.258819991574292,0.0932452469264022
0.331,22.25911438185841,0.09353119086620747
0.332,22.259409676254034,0.0938171657487361
0.333,22.25970587488342,0.09410317167109855
0.334,22.260002977869185,0.09438920873043882
0.335,22.260300985334347,0.09467527702393433
0.336,22.260599897402294,0.09496137664879616
0.337,22.26089971419681,0.09524750770226897
0.338,22.261200435842074,0.0955336702816314
0.339,22.261502062462633,0.09581986448419585
0.34,22.261804594183424,0.09610609040730893
0.341,22.26210803112978,0.09639234814835126
0.342,22.26241237342741,0.09667863780473776
0.343,22.2627176212024,0.09696495947391771
0.34400000000000003,22.263023774581253,0.09725131325337487
0.34500000000000003,22.26333083369083,0.09753769924062759
0.34600000000000003,22.263638798658395,0.09782411753322891
0.34700000000000003,22.263947669611593,0.09811056822876665
0.34800000000000003,22.26425744667845,0.09839705142486355
0.34900000000000003,22.264568129987396,0.09868356721917744
0.35000000000000003,22.26487971966723,0.09897011570940113
0.35100000000000003,22.265192215847144,0.09925669699326285
0.352,22.26550561865673,0.09954331116852604
0.353,22.26581992822596,0.09982995833298969
0.354,22.266135144685183,0.10011663858448835
0.355,22.266451268165145,0.10040335202089223
0.356,22.266768298796986,0.10069009874010736
0.357,22.267086236712238,0.10097687884007565
0.358,22.267405082042803,0.10126369241877502
0.359,22.26772483492098,0.10155053957421958
0.36,22.268045495479466,0.10183742040445963
0.361,22.268367063851347,0.10212433500758179
0.362,22.268689540170076,0.1024112834817092
0.363,22.26901292456952,0.10269826592500154
0.364,22.269337217183928,0.10298528243565519
0.365,22.269662418147934,0.10327233311190329
0.366,22.269988527596574,0.10355941805201595
0.367,22.27031554566526,0.10384653735430023
0.368,22.2706434724898,0.10413369111710032
0.369,22.2709723082064,0.10442087943879771
0.37,22.271302052951643,0.1047081024178112
0.371,22.271632706862512,0.10499536015259707
0.372,22.271964270076378,0.1052826527416492
0.373,22.27229674273101,0.10556998028349902
0.374,22.27263012496455,0.10585734287671597
0.375,22.272964416915553,0.10614474061990724
0.376,22.273299618722955,0.10643217361171813
0.377,22.27363573052608,0.10671964195083203
0.378,22.27397275246467,0.10700714573597062
0.379,22.274310684678817,0.10729468506589392
0.38,22.27464952730903,0.10758226003940047
0.381,22.274989280496204,0.10786987075532724
0.382,22.275329944381646,0.10815751731255008
0.383,22.275671519107032,0.10844519980998363
0.384,22.27601400481444,0.1087329183465813
0.385,22.27635740164633,0.10902067302133578
0.386,22.27670170974559,0.10930846393327875
0.387,22.277046929255448,0.10959629118148116
0.388,22.277393060319582,0.10988415486505336
0.389,22.27774010308202,0.11017205508314527
0.39,22.278088057687217,0.11045999193494631
0.391,22.278436924279987,0.11074796551968562
0.392,22.278786703005576,0.11103597593663228
0.393,22.2791373940096,0.11132402328509522
0.394,22.27948899743806,0.11161210766442348
0.395,22.279841513437407,0.11190022917400627
0.396,22.280194942154413,0.11218838791327303
0.397,22.280549283736306,0.1124765839816937
0.398,22.280904538330667,0.11276481747877869
0.399,22.2812607060855,0.11305308850407898
0.4,22.281617787149194,0.11334139715718645
0.401,22.28197578167054,0.11362974353773371
0.402,22.28233468979871,0.11391812774539439
0.403,22.282694511683285,0.11420654987988323
0.404,22.28305524747426,0.11449501004095614
0.405,22.283416897321988,0.11478350832841039
0.406,22.283779461377247,0.11507204484208464
0.40700000000000003,22.284142939791202,0.11536061968185911
0.40800000000000003,22.284507332715414,0.11564923294765574
0.40900000000000003,22.284872640301856,0.11593788473943821
0.41000000000000003,22.285238862702876,0.11622657515721205
0.41100000000000003,22.28560600007124,0.11651530430102497
0.41200000000000003,22.2859740525601,0.11680407227096658
0.41300000000000003,22.286343020323013,0.11709287916716893
0.41400000000000003,22.286712903513934,0.1173817250898063
0.41500000000000004,22.287083702287205,0.11767061013909551
0.41600000000000004,22.28745541679759,0.11795953441529598
0.417,22.287828047200232,0.11824849801870976
0.418,22.288201593650673,0.11853750104968187
0.419,22.288576056304876,0.11882654360860015
0.42,22.288951435319177,0.11911562579589556
0.421,22.28932773085033,0.11940474771204211
0.422,22.289704943055483,0.11969390945755726
0.423,22.290083072092184,0.11998311113300186
0.424,22.290462118118384,0.12027235283898018
0.425,22.290842081292425,0.12056163467614019
0.426,22.291222961773062,0.12085095674517368
0.427,22.29160475971944,0.12114031914681622
