;RAW4.00
[RawHeader]
Date=07/20/2023
EstimatedTotalTime=30148.4
FurtherDQLReading=0
HardwareIndicator=65519
MeasuredTotalTime=30148.4
MeasurementFlag=1
NumberOfMeasuredRanges=1
NumberOfRanges=1
Time=22:05:59

[VarInfo]
Type=USER
Flags=0
Value=Lab Manager

[VarInfo]
Type=SAMPLEID
Flags=0
Value=Commander Sample ID

[VarInfo]
Type=COMMENT
Flags=0
Value=

[VarInfo]
Type=UTF
Flags=0
Value=

[VarInfo]
Type=CREATOR
Flags=0
Value=BrmlToV4Converter

[VarInfo]
Type=CREATOR_VERSION
Flags=0
Value=6.4.1.0

[VarInfo]
Type=SUBSTRATE
Flags=0
Value=Si (no database)

[VarInfo]
Type=LAYER
Flags=0
Value=Si (no database)

[HardwareConfiguration]
AbsorptionFactor=9999
ActivateAbsorber=0
Alpha1=1.5406
Alpha2=1.54439
AlphaAverage=1.54184
AlphaRatio=0.5
Analyzer=0
Anode=Cu
AntiScatteringSlit=9999
BeamOpticsFlags=0
Beta=1.39222
BetaRelativeIntensity=0
DeactivateAbsorber=0
DetectorSlit=1
DivergenceSlit=1
GoniometerControl=0
GoniometerDiameter=910
GoniometerModel=512
GoniometerStage=4
Monochromator=0
NearSampleSlit=9999
PrimarySollerSlit=9999
SampleChanger=0
SecondSollerSlit=9999
SynchronousAxis=0
ThinFilmAttachment=9999
WaveUnit=A

[VisualEditDQL]
A=0.5431
AlignedHKL=+00/+00/+00
AlignmentIncidence=2
Alpha=90
B=0.5431
Beta=90
C=0.5431
CrystalSystem=0
Gamma=90
LatticeA=0.5431
LatticeAlpha=90
LatticeB=0.5431
LatticeBeta=90
LatticeC=0.5431
LatticeCrystalSystem=0
LatticeGamma=90
Lattice_mno=+00/+00/+01
Lattice_pqr=+01/+01/+00
MappingID1=0
MappingID2=0
MappingID3=0
MappingSet1=0
MappingSet2=0
MappingSet3=0
MappingStart1=0
MappingStart2=0
MappingStart3=0
MappingStop1=0
MappingStop2=0
MappingStop3=0
MeasurementType=5
ReciprocalSpaceUnit=0
mno=+00/+00/+01
pqr=+01/+01/+00

[DriveAlignment]
AlignFlag=2
Delta=1.5
DriveName=Theta
Offset=0
TheoreticalPosition=0

[DriveAlignment]
AlignFlag=2
Delta=1
DriveName=TwoTheta
Offset=0
TheoreticalPosition=0

[DriveAlignment]
AlignFlag=2
Delta=1
DriveName=Detector
Offset=0
TheoreticalPosition=0

[DriveAlignment]
AlignFlag=2
Delta=0.75
DriveName=Chi
Offset=0
TheoreticalPosition=0

[DriveAlignment]
AlignFlag=2
Delta=2
DriveName=Phi
Offset=0
TheoreticalPosition=0

[DriveAlignment]
AlignFlag=2
Delta=1
DriveName=BeamTranslation
Offset=0
TheoreticalPosition=0

[DriveAlignment]
AlignFlag=2
Delta=10
DriveName=X
Offset=0
TheoreticalPosition=0

[DriveAlignment]
AlignFlag=2
Delta=10
DriveName=Y
Offset=0
TheoreticalPosition=0

[DriveAlignment]
AlignFlag=2
Delta=1
DriveName=Z
Offset=0
TheoreticalPosition=0

[RangeHeader]
ActuallyUsedLambda=1.5406
AdditionalDetectorMask=4100
DataRecordLength=4
DelayTime=0
DisplayPlaneNumber=0
EstimatedScanTime=30148
ExtraParametersMask=0
GeneratorCurrent=1
GeneratorVoltage=50
Increment=0.02
Increment3=0
NumberOfCompletedData=1001
NumberOfCounts=1
NumberOfDetectors=0
NumberOfDrives=8
NumberOfEncoderDrives=0
NumberOfMeasuredData=1001
NumberOfVaryingParameters=0
RangeStartTime=0
RotationSpeed=0
ScanMode=1
ScanType=Unlocked Coupled
SimulatedMeasConditions=0
SlitChangerIn=0
SmootingWidth=0
Start=40
Steps=1001
SynchronousRotation=0
Time=30

[VarInfo]
Type=PSD_DISCRIM
Flags=0
Value=0.11;0.25

[PSD]
ActualTwoTheta=9999
FirstUsedChannel=0
FixedPSD=0
PSDOpening=0.975
PSDType=5

[Drive]
DriveFlags=1
DriveName=2Theta
DriveNumber=2
DriveOffset=0
OffsetIndex=0
OscillationAmplitude=0
OscillationSpeed=0
StartPosition=40

[Drive]
DriveFlags=1
DriveName=Theta
DriveNumber=1
DriveOffset=0
OffsetIndex=0
OscillationAmplitude=0
OscillationSpeed=0
StartPosition=20.1952

[Drive]
DriveFlags=1
DriveName=Chi
DriveNumber=4
DriveOffset=0
OffsetIndex=0
OscillationAmplitude=0
OscillationSpeed=0
StartPosition=-0

[Drive]
DriveFlags=1
DriveName=Phi
DriveNumber=3
DriveOffset=0
OffsetIndex=0
OscillationAmplitude=0
OscillationSpeed=0
StartPosition=0

[Drive]
DriveFlags=0
DriveName=BeamTranslation
DriveNumber=14
DriveOffset=0
OffsetIndex=0
OscillationAmplitude=0
OscillationSpeed=0
StartPosition=-0

[Drive]
DriveFlags=0
DriveName=X-Drive
DriveNumber=5
DriveOffset=0
OffsetIndex=0
OscillationAmplitude=0
OscillationSpeed=0
StartPosition=0.105

[Drive]
DriveFlags=0
DriveName=Y-Drive
DriveNumber=6
DriveOffset=0
OffsetIndex=0
OscillationAmplitude=0
OscillationSpeed=0
StartPosition=-0.539

[Drive]
DriveFlags=0
DriveName=Z-Drive
DriveNumber=7
DriveOffset=0
OffsetIndex=0
OscillationAmplitude=0
OscillationSpeed=0
StartPosition=1.027

[HRXRD]
2ThetaOffset=0
AlignmentSet=0
AnalyzerBeamPath=0
AnalyzerOptic=0
ChiMiddle=0
ChiOriginal=9999
CoupleFactor=0
DiffractionSetup=0
HRXRDScanType=1
HeidenhainPeak=9999
IncidenceFlag=2
LambdaDetermined=1.5406
LambdaTheory=1.5406
MonochromatorAnalyzerCombination=0
Omega1Original=9999
Omega2Original=9999
OmegaMiddle=0
OmegaOriginal=9999
PhiMiddle=0
PhiOriginal=9999
Psi=9999
QParallelMiddle=9999
QVerticalMiddle=9999
ReciprocalXIncrement=0
ReciprocalXStart=0
ReciprocalXStop=0
ReciprocalYIncrement=0
ReciprocalYStart=0
ReciprocalYStop=0
ReciprocalZIncrement=0
ReciprocalZStart=0
ReciprocalZStop=0
ScanRelativeStart=40
ScanRelativeStop=60
SimFF=9999
SubstrateRelated=0
TauBragg=0
TauMismatch=0
ThetaBragg=0
ThetaMiddle=0
TwoThetaMiddle=0
XMiddle=0
XOriginal=9999
YMiddle=0
YOriginal=9999
ZMiddle=0
hkl=+00/+00/+00

[Data]
     Angle,       PSD,
        40,         4,
     40.02,         6,
     40.04,         8,
     40.06,         9,
     40.08,        11,
      40.1,        17,
     40.12,         7,
     40.14,        10,
     40.16,         4,
     40.18,        12,
      40.2,         4,
     40.22,        12,
     40.24,         6,
     40.26,         5,
     40.28,         4,
      40.3,         8,
     40.32,         4,
     40.34,         9,
     40.36,         5,
     40.38,         7,
      40.4,        18,
     40.42,        10,
     40.44,        11,
     40.46,         6,
     40.48,         7,
      40.5,         5,
     40.52,        11,
     40.54,        11,
     40.56,        11,
     40.58,        11,
      40.6,        18,
     40.62,        14,
     40.64,        11,
     40.66,        15,
     40.68,        13,
      40.7,        11,
     40.72,         7,
     40.74,        13,
     40.76,        13,
     40.78,        16,
      40.8,        10,
     40.82,        11,
     40.84,        13,
     40.86,         5,
     40.88,         3,
      40.9,         1,
     40.92,         6,
     40.94,         4,
     40.96,        12,
     40.98,        10,
        41,         6,
     41.02,         5,
     41.04,         5,
     41.06,        10,
     41.08,         6,
      41.1,         7,
     41.12,         8,
     41.14,        13,
     41.16,        14,
     41.18,        22,
      41.2,        16,
     41.22,        14,
     41.24,        13,
     41.26,         8,
     41.28,        13,
      41.3,        12,
     41.32,         9,
     41.34,         7,
     41.36,        17,
     41.38,        19,
      41.4,        11,
     41.42,         7,
     41.44,        14,
     41.46,        15,
     41.48,        12,
      41.5,        13,
     41.52,        11,
     41.54,        15,
     41.56,        11,
     41.58,        11,
      41.6,        12,
     41.62,         9,
     41.64,        11,
     41.66,         9,
     41.68,        14,
      41.7,         7,
     41.72,         6,
     41.74,         9,
     41.76,        18,
     41.78,        10,
      41.8,        13,
     41.82,        15,
     41.84,        13,
     41.86,         9,
     41.88,        15,
      41.9,        13,
     41.92,        17,
     41.94,        16,
     41.96,        19,
     41.98,        17,
        42,        17,
     42.02,        22,
     42.04,        19,
     42.06,        15,
     42.08,        11,
      42.1,        29,
     42.12,        21,
     42.14,        35,
     42.16,        16,
     42.18,        20,
      42.2,        24,
     42.22,        15,
     42.24,        11,
     42.26,        13,
     42.28,        17,
      42.3,         6,
     42.32,        16,
     42.34,        13,
     42.36,        15,
     42.38,        14,
      42.4,        13,
     42.42,         7,
     42.44,         9,
     42.46,        18,
     42.48,         9,
      42.5,         8,
     42.52,        21,
     42.54,        16,
     42.56,         8,
     42.58,        17,
      42.6,        25,
     42.62,        27,
     42.64,        29,
     42.66,        21,
     42.68,        25,
      42.7,        32,
     42.72,        33,
     42.74,        40,
     42.76,        33,
     42.78,        22,
      42.8,        25,
     42.82,        33,
     42.84,        37,
     42.86,        33,
     42.88,        30,
      42.9,        32,
     42.92,        29,
     42.94,        25,
     42.96,        31,
     42.98,        30,
        43,        26,
     43.02,        22,
     43.04,        14,
     43.06,        25,
     43.08,        17,
      43.1,        19,
     43.12,        12,
     43.14,        27,
     43.16,        19,
     43.18,        18,
      43.2,        16,
     43.22,        17,
     43.24,        21,
     43.26,        23,
     43.28,        27,
      43.3,        36,
     43.32,        34,
     43.34,        33,
     43.36,        49,
     43.38,        53,
      43.4,        50,
     43.42,        58,
     43.44,        50,
     43.46,        63,
     43.48,        53,
      43.5,        51,
     43.52,        75,
     43.54,        49,
     43.56,        57,
     43.58,        57,
      43.6,        57,
     43.62,        55,
     43.64,        62,
     43.66,        46,
     43.68,        44,
      43.7,        51,
     43.72,        46,
     43.74,        46,
     43.76,        44,
     43.78,        32,
      43.8,        36,
     43.82,        44,
     43.84,        40,
     43.86,        30,
     43.88,        30,
      43.9,        29,
     43.92,        35,
     43.94,        32,
     43.96,        48,
     43.98,        62,
        44,        58,
     44.02,        70,
     44.04,        58,
     44.06,        83,
     44.08,        72,
      44.1,       115,
     44.12,       111,
     44.14,        91,
     44.16,       106,
     44.18,       118,
      44.2,       129,
     44.22,       113,
     44.24,       122,
     44.26,       131,
     44.28,       144,
      44.3,       143,
     44.32,       123,
     44.34,       113,
     44.36,       140,
     44.38,       120,
      44.4,       107,
     44.42,       117,
     44.44,        92,
     44.46,        85,
     44.48,        78,
      44.5,        82,
     44.52,        78,
     44.54,        70,
     44.56,        52,
     44.58,        67,
      44.6,        64,
     44.62,        55,
     44.64,        44,
     44.66,        68,
     44.68,        80,
      44.7,        88,
     44.72,        79,
     44.74,        96,
     44.76,        97,
     44.78,       127,
      44.8,       118,
     44.82,       143,
     44.84,       121,
     44.86,       138,
     44.88,       171,
      44.9,       193,
     44.92,       224,
     44.94,       210,
     44.96,       234,
     44.98,       248,
        45,       258,
     45.02,       228,
     45.04,       283,
     45.06,       265,
     45.08,       282,
      45.1,       253,
     45.12,       236,
     45.14,       233,
     45.16,       231,
     45.18,       205,
      45.2,       197,
     45.22,       175,
     45.24,       175,
     45.26,       163,
     45.28,       138,
      45.3,       110,
     45.32,       112,
     45.34,       113,
     45.36,        87,
     45.38,        92,
      45.4,        72,
     45.42,       102,
     45.44,        89,
     45.46,       105,
     45.48,       114,
      45.5,       120,
     45.52,       122,
     45.54,       151,
     45.56,       185,
     45.58,       209,
      45.6,       221,
     45.62,       272,
     45.64,       317,
     45.66,       336,
     45.68,       368,
      45.7,       449,
     45.72,       401,
     45.74,       463,
     45.76,       528,
     45.78,       532,
      45.8,       500,
     45.82,       535,
     45.84,       584,
     45.86,       552,
     45.88,       559,
      45.9,       555,
     45.92,       534,
     45.94,       566,
     45.96,       521,
     45.98,       461,
        46,       442,
     46.02,       386,
     46.04,       351,
     46.06,       308,
     46.08,       269,
      46.1,       218,
     46.12,       181,
     46.14,       148,
     46.16,       121,
     46.18,        92,
      46.2,        88,
     46.22,        83,
     46.24,       105,
     46.26,       108,
     46.28,       143,
      46.3,       199,
     46.32,       267,
     46.34,       326,
     46.36,       459,
     46.38,       557,
      46.4,       676,
     46.42,       854,
     46.44,       945,
     46.46,      1173,
     46.48,      1388,
      46.5,      1508,
     46.52,      1805,
     46.54,      1975,
     46.56,      2263,
     46.58,      2340,
      46.6,      2770,
     46.62,      2990,
     46.64,      3274,
     46.66,      3576,
     46.68,      3926,
      46.7,      4490,
     46.72,      5226,
     46.74,      6460,
     46.76,      7554,
     46.78,      8794,
      46.8,     10311,
     46.82,     12627,
     46.84,     17091,
     46.86,     24727,
     46.88,     41258,
      46.9,     88439,
     46.92,    441336,
     46.94,1.02044e+007,
     46.96,2.17638e+007,
     46.98,9.76207e+006,
        47,1.62232e+006,
     47.02,    135721,
     47.04,     52769,
     47.06,     33843,
     47.08,     24138,
      47.1,     18507,
     47.12,     15144,
     47.14,     13291,
     47.16,     12128,
     47.18,     10606,
      47.2,      8861,
     47.22,      6836,
     47.24,      5609,
     47.26,      4366,
     47.28,      3568,
      47.3,      2777,
     47.32,      2280,
     47.34,      1713,
     47.36,      1343,
     47.38,      1073,
      47.4,       815,
     47.42,       639,
     47.44,       540,
     47.46,       454,
     47.48,       487,
      47.5,       558,
     47.52,       643,
     47.54,       850,
     47.56,      1109,
     47.58,      1317,
      47.6,      1625,
     47.62,      1966,
     47.64,      2358,
     47.66,      2870,
     47.68,      3154,
      47.7,      3576,
     47.72,      4153,
     47.74,      4629,
     47.76,      5070,
     47.78,      5644,
      47.8,      6144,
     47.82,      6630,
     47.84,      6933,
     47.86,      7677,
     47.88,      7941,
      47.9,      8371,
     47.92,      8827,
     47.94,      9228,
     47.96,      9527,
     47.98,      9773,
        48,     10169,
     48.02,     10201,
     48.04,     10440,
     48.06,     10856,
     48.08,     10743,
      48.1,     10977,
     48.12,     11046,
     48.14,     11211,
     48.16,     11167,
     48.18,     10991,
      48.2,     11213,
     48.22,     10998,
     48.24,     11013,
     48.26,     10672,
     48.28,     10250,
      48.3,     10338,
     48.32,     10102,
     48.34,      9746,
     48.36,      9489,
     48.38,      9045,
      48.4,      8692,
     48.42,      8402,
     48.44,      8180,
     48.46,      7865,
     48.48,      7331,
      48.5,      7077,
     48.52,      6678,
     48.54,      6255,
     48.56,      6016,
     48.58,      5816,
      48.6,      5326,
     48.62,      4889,
     48.64,      4707,
     48.66,      4290,
     48.68,      4024,
      48.7,      3700,
     48.72,      3386,
     48.74,      3096,
     48.76,      2724,
     48.78,      2511,
      48.8,      2316,
     48.82,      2032,
     48.84,      1870,
     48.86,      1560,
     48.88,      1437,
      48.9,      1320,
     48.92,      1159,
     48.94,      1000,
     48.96,       798,
     48.98,       712,
        49,       577,
     49.02,       527,
     49.04,       383,
     49.06,       310,
     49.08,       224,
      49.1,       205,
     49.12,       165,
     49.14,       109,
     49.16,        78,
     49.18,        58,
      49.2,        27,
     49.22,        32,
     49.24,         7,
     49.26,        12,
     49.28,        21,
      49.3,        18,
     49.32,        41,
     49.34,        46,
     49.36,        63,
     49.38,        77,
      49.4,        96,
     49.42,        99,
     49.44,       118,
     49.46,       151,
     49.48,       150,
      49.5,       148,
     49.52,       201,
     49.54,       165,
     49.56,       208,
     49.58,       227,
      49.6,       223,
     49.62,       207,
     49.64,       216,
     49.66,       216,
     49.68,       201,
      49.7,       214,
     49.72,       198,
     49.74,       210,
     49.76,       187,
     49.78,       193,
      49.8,       176,
     49.82,       156,
     49.84,       146,
     49.86,       137,
     49.88,       120,
      49.9,       109,
     49.92,        83,
     49.94,        95,
     49.96,        80,
     49.98,        64,
        50,        48,
     50.02,        33,
     50.04,        29,
     50.06,        23,
     50.08,        15,
      50.1,        17,
     50.12,        11,
     50.14,         7,
     50.16,        14,
     50.18,         6,
      50.2,         8,
     50.22,         6,
     50.24,        21,
     50.26,        19,
     50.28,        29,
      50.3,        31,
     50.32,        31,
     50.34,        44,
     50.36,        46,
     50.38,        48,
      50.4,        49,
     50.42,        48,
     50.44,        55,
     50.46,        64,
     50.48,        60,
      50.5,        68,
     50.52,        55,
     50.54,        74,
     50.56,        56,
     50.58,        76,
      50.6,        69,
     50.62,        64,
     50.64,        58,
     50.66,        79,
     50.68,        72,
      50.7,        51,
     50.72,        51,
     50.74,        51,
     50.76,        52,
     50.78,        47,
      50.8,        33,
     50.82,        28,
     50.84,        24,
     50.86,        27,
     50.88,        13,
      50.9,        21,
     50.92,        19,
     50.94,        11,
     50.96,        14,
     50.98,        14,
        51,         7,
     51.02,         2,
     51.04,         8,
     51.06,         3,
     51.08,         5,
      51.1,         6,
     51.12,        12,
     51.14,        14,
     51.16,        10,
     51.18,        17,
      51.2,        14,
     51.22,        19,
     51.24,        21,
     51.26,        20,
     51.28,        23,
      51.3,        21,
     51.32,        22,
     51.34,        32,
     51.36,        29,
     51.38,        32,
      51.4,        24,
     51.42,        21,
     51.44,        24,
     51.46,        29,
     51.48,        29,
      51.5,        24,
     51.52,        26,
     51.54,        27,
     51.56,        23,
     51.58,        26,
      51.6,        20,
     51.62,        21,
     51.64,        18,
     51.66,        15,
     51.68,        17,
      51.7,        18,
     51.72,         7,
     51.74,         9,
     51.76,         8,
     51.78,         9,
      51.8,         3,
     51.82,         5,
     51.84,         6,
     51.86,         4,
     51.88,         3,
      51.9,         6,
     51.92,         5,
     51.94,         5,
     51.96,         3,
     51.98,         4,
        52,         2,
     52.02,         5,
     52.04,         5,
     52.06,         7,
     52.08,        10,
      52.1,         5,
     52.12,         9,
     52.14,         6,
     52.16,        15,
     52.18,         6,
      52.2,        12,
     52.22,         9,
     52.24,        15,
     52.26,        14,
     52.28,        12,
      52.3,         8,
     52.32,         8,
     52.34,        15,
     52.36,         9,
     52.38,         9,
      52.4,         4,
     52.42,        13,
     52.44,        11,
     52.46,        17,
     52.48,         7,
      52.5,         3,
     52.52,        12,
     52.54,         6,
     52.56,         6,
     52.58,         6,
      52.6,         4,
     52.62,         9,
     52.64,        12,
     52.66,         6,
     52.68,         6,
      52.7,         3,
     52.72,         6,
     52.74,         7,
     52.76,         5,
     52.78,         6,
      52.8,         5,
     52.82,         3,
     52.84,         4,
     52.86,         5,
     52.88,         4,
      52.9,         6,
     52.92,         3,
     52.94,         4,
     52.96,         5,
     52.98,         5,
        53,         5,
     53.02,         9,
     53.04,         4,
     53.06,         7,
     53.08,         8,
      53.1,         2,
     53.12,         6,
     53.14,         6,
     53.16,         7,
     53.18,         6,
      53.2,         9,
     53.22,         6,
     53.24,         6,
     53.26,         5,
     53.28,         3,
      53.3,         6,
     53.32,         5,
     53.34,         3,
     53.36,         5,
     53.38,         4,
      53.4,         7,
     53.42,         8,
     53.44,         5,
     53.46,        14,
     53.48,         5,
      53.5,         3,
     53.52,         4,
     53.54,         8,
     53.56,         5,
     53.58,         7,
      53.6,         4,
     53.62,         6,
     53.64,         8,
     53.66,         3,
     53.68,         0,
      53.7,         2,
     53.72,         2,
     53.74,         4,
     53.76,         4,
     53.78,         4,
      53.8,         0,
     53.82,         2,
     53.84,         4,
     53.86,         5,
     53.88,         2,
      53.9,         4,
     53.92,         2,
     53.94,         4,
     53.96,         3,
     53.98,         4,
        54,         2,
     54.02,         6,
     54.04,         8,
     54.06,         5,
     54.08,         5,
      54.1,         3,
     54.12,         3,
     54.14,         6,
     54.16,         4,
     54.18,         7,
      54.2,         7,
     54.22,         5,
     54.24,         6,
     54.26,         6,
     54.28,         2,
      54.3,         9,
     54.32,         4,
     54.34,         8,
     54.36,         7,
     54.38,         3,
      54.4,         5,
     54.42,         4,
     54.44,         4,
     54.46,         4,
     54.48,         7,
      54.5,         4,
     54.52,         5,
     54.54,         3,
     54.56,         4,
     54.58,         2,
      54.6,         3,
     54.62,         2,
     54.64,         4,
     54.66,         3,
     54.68,         6,
      54.7,         5,
     54.72,         3,
     54.74,         1,
     54.76,         4,
     54.78,         2,
      54.8,         3,
     54.82,         0,
     54.84,         4,
     54.86,         2,
     54.88,         8,
      54.9,         0,
     54.92,         6,
     54.94,         4,
     54.96,         7,
     54.98,         6,
        55,         8,
     55.02,         7,
     55.04,         3,
     55.06,         3,
     55.08,         2,
      55.1,         3,
     55.12,         5,
     55.14,         7,
     55.16,         8,
     55.18,         2,
      55.2,         1,
     55.22,         7,
     55.24,         3,
     55.26,         3,
     55.28,         3,
      55.3,         3,
     55.32,         3,
     55.34,         0,
     55.36,         1,
     55.38,         1,
      55.4,         5,
     55.42,        12,
     55.44,         5,
     55.46,         0,
     55.48,         2,
      55.5,        10,
     55.52,         2,
     55.54,         1,
     55.56,         3,
     55.58,         3,
      55.6,         2,
     55.62,         2,
     55.64,         4,
     55.66,         6,
     55.68,         3,
      55.7,         2,
     55.72,         2,
     55.74,         9,
     55.76,         2,
     55.78,         3,
      55.8,         6,
     55.82,         6,
     55.84,         2,
     55.86,         3,
     55.88,         0,
      55.9,         4,
     55.92,         4,
     55.94,         6,
     55.96,         5,
     55.98,         2,
        56,         5,
     56.02,         1,
     56.04,         1,
     56.06,         3,
     56.08,         2,
      56.1,         3,
     56.12,         5,
     56.14,         4,
     56.16,         3,
     56.18,         3,
      56.2,         2,
     56.22,         2,
     56.24,         0,
     56.26,         2,
     56.28,         2,
      56.3,         3,
     56.32,         1,
     56.34,         5,
     56.36,         2,
     56.38,         2,
      56.4,         5,
     56.42,         2,
     56.44,         2,
     56.46,         1,
     56.48,         0,
      56.5,         1,
     56.52,         4,
     56.54,         4,
     56.56,         1,
     56.58,         2,
      56.6,         7,
     56.62,         3,
     56.64,         2,
     56.66,         4,
     56.68,         2,
      56.7,         4,
     56.72,         2,
     56.74,         4,
     56.76,         4,
     56.78,         5,
      56.8,         2,
     56.82,         2,
     56.84,         4,
     56.86,         2,
     56.88,         4,
      56.9,         1,
     56.92,         1,
     56.94,         4,
     56.96,         2,
     56.98,         3,
        57,         3,
     57.02,         0,
     57.04,         3,
     57.06,         4,
     57.08,         2,
      57.1,         1,
     57.12,         2,
     57.14,         1,
     57.16,         3,
     57.18,         5,
      57.2,         5,
     57.22,         1,
     57.24,         5,
     57.26,         1,
     57.28,         1,
      57.3,         6,
     57.32,         1,
     57.34,         4,
     57.36,         0,
     57.38,         0,
      57.4,         2,
     57.42,         2,
     57.44,         1,
     57.46,         2,
     57.48,         4,
      57.5,         1,
     57.52,         4,
     57.54,         3,
     57.56,         3,
     57.58,         1,
      57.6,         2,
     57.62,         3,
     57.64,         2,
     57.66,         1,
     57.68,         4,
      57.7,         5,
     57.72,         6,
     57.74,         3,
     57.76,         3,
     57.78,         2,
      57.8,         4,
     57.82,         4,
     57.84,         2,
     57.86,         2,
     57.88,         3,
      57.9,         3,
     57.92,         1,
     57.94,         1,
     57.96,         2,
     57.98,         2,
        58,         2,
     58.02,         2,
     58.04,         2,
     58.06,         1,
     58.08,         5,
      58.1,         1,
     58.12,         4,
     58.14,         3,
     58.16,         3,
     58.18,         4,
      58.2,         4,
     58.22,         1,
     58.24,         1,
     58.26,         1,
     58.28,         1,
      58.3,         3,
     58.32,         3,
     58.34,         0,
     58.36,         6,
     58.38,         0,
      58.4,         0,
     58.42,         3,
     58.44,         2,
     58.46,         3,
     58.48,         5,
      58.5,         2,
     58.52,         2,
     58.54,         7,
     58.56,         1,
     58.58,         4,
      58.6,         5,
     58.62,         4,
     58.64,         2,
     58.66,         1,
     58.68,         5,
      58.7,         1,
     58.72,         5,
     58.74,         3,
     58.76,         1,
     58.78,         1,
      58.8,         3,
     58.82,         1,
     58.84,         0,
     58.86,         3,
     58.88,         1,
      58.9,         3,
     58.92,         1,
     58.94,         3,
     58.96,         2,
     58.98,         4,
        59,         0,
     59.02,         1,
     59.04,         2,
     59.06,         3,
     59.08,         1,
      59.1,         7,
     59.12,         1,
     59.14,         3,
     59.16,         2,
     59.18,         2,
      59.2,         2,
     59.22,         3,
     59.24,         1,
     59.26,         0,
     59.28,         5,
      59.3,         4,
     59.32,         2,
     59.34,         4,
     59.36,         2,
     59.38,         2,
      59.4,         1,
     59.42,         1,
     59.44,         1,
     59.46,         1,
     59.48,         1,
      59.5,         1,
     59.52,         2,
     59.54,         2,
     59.56,         3,
     59.58,         3,
      59.6,         4,
     59.62,         5,
     59.64,         3,
     59.66,         3,
     59.68,         1,
      59.7,         1,
     59.72,         2,
     59.74,         2,
     59.76,         0,
     59.78,         1,
      59.8,         1,
     59.82,         1,
     59.84,         3,
     59.86,         3,
     59.88,         2,
      59.9,         1,
     59.92,         5,
     59.94,         2,
     59.96,         3,
     59.98,         3,
        60,         3,
